#			MODEL 5
#  PDR Model for Leiden Workshop - line cooling
#					May 24, 2004 Frank Bensch
#    zg(cm)	 Av(eff)  	[CII]	     [OI]63    [OI]146       [CI]610	  [CI]370     PE heat     total heat   total cool  H2-vib heat gas-grain cool gas-grain heat
  0.00000E+00  0.00000E+00  0.35870E-21  0.19585E-22  0.31384E-24  0.73512E-26  0.34268E-25  0.30064E-21  0.37962E-21  0.37963E-21  0.29948E-23 0.16375E-24  0.00000E-00
  0.10000E+07  0.17245E-10  0.35870E-21  0.19585E-22  0.31384E-24  0.73512E-26  0.34268E-25  0.30064E-21  0.37962E-21  0.37963E-21  0.29948E-23 0.16375E-24  0.00000E-00
  0.30000E+07  0.49664E-10  0.35870E-21  0.19585E-22  0.31384E-24  0.73512E-26  0.34268E-25  0.30064E-21  0.37962E-21  0.37963E-21  0.29948E-23 0.16375E-24  0.00000E-00
  0.69999E+07  0.11215E-09  0.35870E-21  0.19585E-22  0.31384E-24  0.73512E-26  0.34268E-25  0.30064E-21  0.37962E-21  0.37963E-21  0.29948E-23 0.16375E-24  0.00000E-00
  0.15000E+08  0.23313E-09  0.35870E-21  0.19585E-22  0.31384E-24  0.73512E-26  0.34268E-25  0.30064E-21  0.37962E-21  0.37963E-21  0.29948E-23 0.16375E-24  0.00000E-00
  0.30999E+08  0.46764E-09  0.35870E-21  0.19585E-22  0.31384E-24  0.73512E-26  0.34268E-25  0.30064E-21  0.37962E-21  0.37963E-21  0.29948E-23 0.16375E-24  0.00000E-00
  0.63000E+08  0.92226E-09  0.35870E-21  0.19585E-22  0.31384E-24  0.73512E-26  0.34268E-25  0.30064E-21  0.37962E-21  0.37963E-21  0.29948E-23 0.16375E-24  0.00000E-00
  0.12700E+09  0.18031E-08  0.35870E-21  0.19585E-22  0.31384E-24  0.73512E-26  0.34268E-25  0.30064E-21  0.37962E-21  0.37963E-21  0.29948E-23 0.16375E-24  0.00000E-00
  0.25500E+09  0.35087E-08  0.35870E-21  0.19585E-22  0.31384E-24  0.73512E-26  0.34268E-25  0.30064E-21  0.37962E-21  0.37963E-21  0.29948E-23 0.16375E-24  0.00000E-00
  0.51099E+09  0.68075E-08  0.35870E-21  0.19585E-22  0.31384E-24  0.73512E-26  0.34268E-25  0.30064E-21  0.37962E-21  0.37963E-21  0.29948E-23 0.16375E-24  0.00000E-00
  0.10230E+10  0.13182E-07  0.35870E-21  0.19585E-22  0.31384E-24  0.73512E-26  0.34268E-25  0.30064E-21  0.37962E-21  0.37963E-21  0.29948E-23 0.16375E-24  0.00000E-00
  0.20470E+10  0.25483E-07  0.35870E-21  0.19585E-22  0.31384E-24  0.73512E-26  0.34268E-25  0.30064E-21  0.37962E-21  0.37963E-21  0.29947E-23 0.16375E-24  0.00000E-00
  0.40950E+10  0.49193E-07  0.35870E-21  0.19585E-22  0.31384E-24  0.73512E-26  0.34268E-25  0.30064E-21  0.37962E-21  0.37963E-21  0.29946E-23 0.16375E-24  0.00000E-00
  0.81909E+10  0.94825E-07  0.35870E-21  0.19585E-22  0.31384E-24  0.73512E-26  0.34268E-25  0.30064E-21  0.37962E-21  0.37963E-21  0.29945E-23 0.16375E-24  0.00000E-00
  0.16383E+11  0.18252E-06  0.35870E-21  0.19585E-22  0.31384E-24  0.73512E-26  0.34268E-25  0.30064E-21  0.37962E-21  0.37963E-21  0.29942E-23 0.16375E-24  0.00000E-00
  0.32767E+11  0.35076E-06  0.35870E-21  0.19585E-22  0.31384E-24  0.73512E-26  0.34268E-25  0.30064E-21  0.37962E-21  0.37963E-21  0.29936E-23 0.16375E-24  0.00000E-00
  0.65534E+11  0.67294E-06  0.35870E-21  0.19585E-22  0.31384E-24  0.73513E-26  0.34268E-25  0.30064E-21  0.37962E-21  0.37963E-21  0.29926E-23 0.16375E-24  0.00000E-00
  0.13107E+12  0.12887E-05  0.35870E-21  0.19585E-22  0.31384E-24  0.73513E-26  0.34268E-25  0.30064E-21  0.37962E-21  0.37963E-21  0.29908E-23 0.16375E-24  0.00000E-00
  0.26214E+12  0.24631E-05  0.35870E-21  0.19585E-22  0.31384E-24  0.73513E-26  0.34268E-25  0.30064E-21  0.37962E-21  0.37963E-21  0.29875E-23 0.16375E-24  0.00000E-00
  0.52429E+12  0.46977E-05  0.35870E-21  0.19585E-22  0.31384E-24  0.73513E-26  0.34268E-25  0.30063E-21  0.37962E-21  0.37963E-21  0.29816E-23 0.16375E-24  0.00000E-00
  0.10486E+13  0.89382E-05  0.35870E-21  0.19585E-22  0.31384E-24  0.73514E-26  0.34269E-25  0.30063E-21  0.37962E-21  0.37963E-21  0.29714E-23 0.16375E-24  0.00000E-00
  0.20971E+13  0.16962E-04  0.35870E-21  0.19585E-22  0.31384E-24  0.73516E-26  0.34269E-25  0.30062E-21  0.37962E-21  0.37963E-21  0.29539E-23 0.16375E-24  0.00000E-00
  0.41944E+13  0.32095E-04  0.35870E-21  0.19585E-22  0.31385E-24  0.73519E-26  0.34271E-25  0.30061E-21  0.37962E-21  0.37963E-21  0.29243E-23 0.16375E-24  0.00000E-00
  0.83887E+13  0.60536E-04  0.35870E-21  0.19586E-22  0.31387E-24  0.73524E-26  0.34273E-25  0.30059E-21  0.37962E-21  0.37963E-21  0.28747E-23 0.16375E-24  0.00000E-00
  0.16777E+14  0.11377E-03  0.35871E-21  0.19588E-22  0.31392E-24  0.73534E-26  0.34278E-25  0.30055E-21  0.37963E-21  0.37963E-21  0.27933E-23 0.16376E-24  0.00000E-00
  0.33554E+14  0.21293E-03  0.35873E-21  0.19594E-22  0.31409E-24  0.73550E-26  0.34287E-25  0.30047E-21  0.37966E-21  0.37967E-21  0.26622E-23 0.16379E-24  0.00000E-00
  0.67107E+14  0.39669E-03  0.35883E-21  0.19618E-22  0.31465E-24  0.73572E-26  0.34303E-25  0.30032E-21  0.37978E-21  0.37979E-21  0.24575E-23 0.16389E-24  0.00000E-00
  0.13422E+15  0.73520E-03  0.35927E-21  0.19714E-22  0.31693E-24  0.73570E-26  0.34327E-25  0.30002E-21  0.38032E-21  0.38033E-21  0.21741E-23 0.16429E-24  0.00000E-00
  0.26844E+15  0.13545E-02  0.36050E-21  0.20024E-22  0.32522E-24  0.73304E-26  0.34269E-25  0.29927E-21  0.38188E-21  0.38188E-21  0.20303E-23 0.16555E-24  0.00000E-00
  0.44739E+15  0.21159E-02  0.35481E-21  0.19649E-22  0.33620E-24  0.71438E-26  0.33082E-25  0.29635E-21  0.37580E-21  0.37580E-21  0.26045E-23 0.16414E-24  0.00000E-00
  0.55477E+15  0.25501E-02  0.34984E-21  0.19477E-22  0.35248E-24  0.70400E-26  0.32325E-25  0.29441E-21  0.37067E-21  0.37067E-21  0.28747E-23 0.16355E-24  0.00000E-00
  0.76951E+15  0.33825E-02  0.34388E-21  0.19444E-22  0.37956E-24  0.69787E-26  0.31709E-25  0.29233E-21  0.36469E-21  0.36469E-21  0.28944E-23 0.16355E-24  0.00000E-00
  0.79635E+15  0.34838E-02  0.34343E-21  0.19449E-22  0.38193E-24  0.69767E-26  0.31675E-25  0.29217E-21  0.36426E-21  0.36425E-21  0.28787E-23 0.16359E-24  0.00000E-00
  0.85004E+15  0.36848E-02  0.34247E-21  0.19465E-22  0.38727E-24  0.69725E-26  0.31602E-25  0.29182E-21  0.36332E-21  0.36331E-21  0.28445E-23 0.16368E-24  0.00000E-00
  0.95742E+15  0.40807E-02  0.34019E-21  0.19528E-22  0.40124E-24  0.69639E-26  0.31433E-25  0.29107E-21  0.36110E-21  0.36110E-21  0.27611E-23 0.16400E-24  0.00000E-00
  0.10219E+16  0.43147E-02  0.33899E-21  0.19572E-22  0.40906E-24  0.69617E-26  0.31354E-25  0.29068E-21  0.35996E-21  0.35995E-21  0.27106E-23 0.16421E-24  0.00000E-00
  0.11507E+16  0.47756E-02  0.33728E-21  0.19639E-22  0.42044E-24  0.69635E-26  0.31264E-25  0.29006E-21  0.35833E-21  0.35832E-21  0.26277E-23 0.16454E-24  0.00000E-00
  0.14084E+16  0.56727E-02  0.33432E-21  0.19777E-22  0.44124E-24  0.69731E-26  0.31137E-25  0.28897E-21  0.35552E-21  0.35551E-21  0.24895E-23 0.16520E-24  0.00000E-00
  0.19238E+16  0.73875E-02  0.32930E-21  0.20050E-22  0.47852E-24  0.70043E-26  0.30985E-25  0.28713E-21  0.35082E-21  0.35081E-21  0.22839E-23 0.16648E-24  0.00000E-00
  0.29546E+16  0.10592E-01  0.32107E-21  0.20561E-22  0.54344E-24  0.70847E-26  0.30852E-25  0.28407E-21  0.34315E-21  0.34315E-21  0.20069E-23 0.16884E-24  0.00000E-00
  0.35729E+16  0.12410E-01  0.31634E-21  0.20923E-22  0.58492E-24  0.71354E-26  0.30786E-25  0.28239E-21  0.33882E-21  0.33883E-21  0.18643E-23 0.17048E-24  0.00000E-00
  0.48100E+16  0.15876E-01  0.30898E-21  0.21464E-22  0.64877E-24  0.72338E-26  0.30757E-25  0.27956E-21  0.33206E-21  0.33207E-21  0.16745E-23 0.17294E-24  0.00000E-00
  0.72841E+16  0.22319E-01  0.29709E-21  0.22359E-22  0.75480E-24  0.74213E-26  0.30797E-25  0.27468E-21  0.32118E-21  0.32119E-21  0.14112E-23 0.17700E-24  0.00000E-00
  0.12232E+17  0.33977E-01  0.27958E-21  0.23582E-22  0.90882E-24  0.77657E-26  0.31048E-25  0.26655E-21  0.30507E-21  0.30506E-21  0.10955E-23 0.18261E-24  0.00000E-00
  0.22127E+17  0.54550E-01  0.25632E-21  0.24675E-22  0.10822E-23  0.83910E-26  0.31847E-25  0.25344E-21  0.28301E-21  0.28306E-21  0.77735E-24 0.18799E-24  0.00000E-00
  0.41919E+17  0.90140E-01  0.22759E-21  0.24300E-22  0.11704E-23  0.95705E-26  0.33929E-25  0.23301E-21  0.25398E-21  0.25399E-21  0.50272E-24 0.18788E-24  0.00000E-00
  0.81502E+17  0.15090E+00  0.19312E-21  0.20837E-22  0.10330E-23  0.11948E-25  0.38780E-25  0.20220E-21  0.21583E-21  0.21583E-21  0.29203E-24 0.17533E-24  0.00000E-00
  0.13450E+18  0.22168E+00  0.16202E-21  0.15798E-22  0.75145E-24  0.15515E-25  0.46102E-25  0.17027E-21  0.17927E-21  0.17928E-21  0.17156E-24 0.15451E-24  0.00000E-00
  0.18750E+18  0.28584E+00  0.13901E-21  0.11570E-22  0.50927E-24  0.19620E-25  0.54206E-25  0.14510E-21  0.15170E-21  0.15171E-21  0.11382E-24 0.13473E-24  0.00000E-00
  0.24050E+18  0.34582E+00  0.12043E-21  0.83500E-23  0.33455E-24  0.24353E-25  0.63016E-25  0.12453E-21  0.12966E-21  0.12966E-21  0.80497E-25 0.11757E-24  0.00000E-00
  0.29350E+18  0.40279E+00  0.10481E-21  0.59841E-23  0.21617E-24  0.29807E-25  0.72520E-25  0.10735E-21  0.11150E-21  0.11151E-21  0.59171E-25 0.10302E-24  0.00000E-00
  0.34649E+18  0.45752E+00  0.91428E-22  0.42674E-23  0.13803E-24  0.36073E-25  0.82723E-25  0.92847E-22  0.96287E-22  0.96292E-22  0.44665E-25 0.90706E-25  0.00000E-00
  0.39950E+18  0.51043E+00  0.79867E-22  0.30358E-23  0.87483E-25  0.43240E-25  0.93620E-25  0.80498E-22  0.83416E-22  0.83420E-22  0.34387E-25 0.80287E-25  0.00000E-00
  0.45251E+18  0.56187E+00  0.69827E-22  0.21571E-23  0.55169E-25  0.51399E-25  0.10520E-24  0.69932E-22  0.72451E-22  0.72449E-22  0.26885E-25 0.71441E-25  0.00000E-00
  0.50550E+18  0.61210E+00  0.61096E-22  0.15332E-23  0.34706E-25  0.60647E-25  0.11747E-24  0.60855E-22  0.63064E-22  0.63063E-22  0.21286E-25 0.63906E-25  0.00000E-00
  0.55851E+18  0.66125E+00  0.53492E-22  0.10907E-23  0.21807E-25  0.71086E-25  0.13042E-24  0.53034E-22  0.55000E-22  0.54999E-22  0.17030E-25 0.57455E-25  0.00000E-00
  0.61149E+18  0.70951E+00  0.46862E-22  0.77713E-24  0.13701E-25  0.82828E-25  0.14405E-24  0.46280E-22  0.48051E-22  0.48050E-22  0.13746E-25 0.51903E-25  0.00000E-00
  0.66450E+18  0.75696E+00  0.41080E-22  0.55487E-24  0.86175E-26  0.95988E-25  0.15836E-24  0.40434E-22  0.42049E-22  0.42048E-22  0.11181E-25 0.47102E-25  0.00000E-00
  0.71751E+18  0.80372E+00  0.36032E-22  0.39712E-24  0.54293E-26  0.11069E-24  0.17335E-24  0.35366E-22  0.36852E-22  0.36852E-22  0.91561E-26 0.42928E-25  0.00000E-00
  0.77049E+18  0.84983E+00  0.31623E-22  0.28493E-24  0.34277E-26  0.12706E-24  0.18902E-24  0.30965E-22  0.32347E-22  0.32347E-22  0.75429E-26 0.39282E-25  0.00000E-00
  0.82351E+18  0.89537E+00  0.27768E-22  0.20499E-24  0.21696E-26  0.14522E-24  0.20534E-24  0.27138E-22  0.28433E-22  0.28433E-22  0.62473E-26 0.36080E-25  0.00000E-00
  0.87649E+18  0.94041E+00  0.24395E-22  0.14787E-24  0.13768E-26  0.16531E-24  0.22230E-24  0.23806E-22  0.25028E-22  0.25028E-22  0.51994E-26 0.33255E-25  0.00000E-00
  0.92950E+18  0.98497E+00  0.21440E-22  0.10695E-24  0.87609E-27  0.18744E-24  0.23986E-24  0.20901E-22  0.22063E-22  0.22063E-22  0.43465E-26 0.30751E-25  0.00000E-00
  0.98251E+18  0.10291E+01  0.18848E-22  0.77543E-25  0.55895E-27  0.21174E-24  0.25797E-24  0.18365E-22  0.19476E-22  0.19476E-22  0.36483E-26 0.28520E-25  0.00000E-00
  0.10355E+19  0.10729E+01  0.16573E-22  0.56351E-25  0.35749E-27  0.23832E-24  0.27656E-24  0.16149E-22  0.17218E-22  0.17218E-22  0.30738E-26 0.26524E-25  0.00000E-00
  0.10885E+19  0.11162E+01  0.14571E-22  0.41032E-25  0.22914E-27  0.26726E-24  0.29556E-24  0.14211E-22  0.15243E-22  0.15243E-22  0.25989E-26 0.24729E-25  0.00000E-00
  0.11415E+19  0.11593E+01  0.12809E-22  0.29927E-25  0.14712E-27  0.29862E-24  0.31486E-24  0.12514E-22  0.13515E-22  0.13515E-22  0.22047E-26 0.23109E-25  0.00000E-00
  0.11945E+19  0.12020E+01  0.11254E-22  0.21853E-25  0.94566E-28  0.33244E-24  0.33430E-24  0.11027E-22  0.12002E-22  0.12002E-22  0.18762E-26 0.21638E-25  0.00000E-00
  0.12475E+19  0.12445E+01  0.98804E-23  0.15967E-25  0.60810E-28  0.36872E-24  0.35374E-24  0.97225E-23  0.10675E-22  0.10675E-22  0.16014E-26 0.20297E-25  0.00000E-00
  0.13005E+19  0.12866E+01  0.86654E-23  0.11667E-25  0.39087E-28  0.40740E-24  0.37295E-24  0.85777E-23  0.95108E-23  0.95108E-23  0.13709E-26 0.19068E-25  0.00000E-00
  0.13535E+19  0.13285E+01  0.75880E-23  0.85164E-26  0.25081E-28  0.44839E-24  0.39172E-24  0.75721E-23  0.84882E-23  0.84882E-23  0.11768E-26 0.17934E-25  0.00000E-00
  0.14065E+19  0.13702E+01  0.66315E-23  0.62052E-26  0.16046E-28  0.49151E-24  0.40974E-24  0.66881E-23  0.75892E-23  0.75893E-23  0.10129E-26 0.16884E-25  0.00000E-00
  0.14595E+19  0.14117E+01  0.57811E-23  0.45076E-26  0.10219E-28  0.53652E-24  0.42672E-24  0.59104E-23  0.67985E-23  0.67985E-23  0.87424E-27 0.15904E-25  0.00000E-00
  0.15125E+19  0.14529E+01  0.50240E-23  0.32602E-26  0.64662E-29  0.58308E-24  0.44226E-24  0.52258E-23  0.61023E-23  0.61023E-23  0.75653E-27 0.14984E-25  0.00000E-00
  0.15655E+19  0.14939E+01  0.43496E-23  0.23443E-26  0.40568E-29  0.63076E-24  0.45598E-24  0.46227E-23  0.54889E-23  0.54889E-23  0.65640E-27 0.14116E-25  0.00000E-00
  0.16185E+19  0.15348E+01  0.37485E-23  0.16729E-26  0.25172E-29  0.67905E-24  0.46744E-24  0.40912E-23  0.49482E-23  0.49482E-23  0.57101E-27 0.13290E-25  0.00000E-00
  0.16715E+19  0.15754E+01  0.32129E-23  0.11824E-26  0.15406E-29  0.72734E-24  0.47619E-24  0.36224E-23  0.44710E-23  0.44711E-23  0.49805E-27 0.12500E-25  0.00000E-00
  0.17245E+19  0.16158E+01  0.27364E-23  0.82597E-27  0.92707E-30  0.77490E-24  0.48178E-24  0.32087E-23  0.40498E-23  0.40498E-23  0.43558E-27 0.11739E-25  0.00000E-00
  0.17775E+19  0.16562E+01  0.23134E-23  0.56888E-27  0.54670E-30  0.82096E-24  0.48377E-24  0.28434E-23  0.36776E-23  0.36776E-23  0.38198E-27 0.11002E-25  0.00000E-00
  0.18305E+19  0.16963E+01  0.19393E-23  0.38532E-27  0.31478E-30  0.86465E-24  0.48179E-24  0.25207E-23  0.33485E-23  0.33485E-23  0.33590E-27 0.10284E-25  0.00000E-00
  0.18835E+19  0.17364E+01  0.16102E-23  0.25599E-27  0.17629E-30  0.90508E-24  0.47555E-24  0.22355E-23  0.30573E-23  0.30574E-23  0.29622E-27 0.95829E-26  0.00000E-00
  0.19365E+19  0.17762E+01  0.13227E-23  0.16637E-27  0.95686E-31  0.94134E-24  0.46489E-24  0.19833E-23  0.27996E-23  0.27996E-23  0.26200E-27 0.88959E-26  0.00000E-00
  0.19895E+19  0.18160E+01  0.10739E-23  0.10550E-27  0.50144E-31  0.97258E-24  0.44981E-24  0.17602E-23  0.25712E-23  0.25712E-23  0.23243E-27 0.82221E-26  0.00000E-00
  0.20425E+19  0.18556E+01  0.86105E-24  0.65147E-28  0.25298E-31  0.99801E-24  0.43052E-24  0.15627E-23  0.23688E-23  0.23688E-23  0.20686E-27 0.75620E-26  0.00000E-00
  0.20955E+19  0.18952E+01  0.68130E-24  0.39107E-28  0.12258E-31  0.10170E-23  0.40744E-24  0.13878E-23  0.21892E-23  0.21890E-23  0.18470E-27 0.69173E-26  0.00000E-00
  0.21485E+19  0.19345E+01  0.53179E-24  0.22799E-28  0.56963E-32  0.10292E-23  0.38119E-24  0.12329E-23  0.20296E-23  0.20291E-23  0.16549E-27 0.62902E-26  0.00000E-00
  0.22015E+19  0.19737E+01  0.41012E-24  0.12956E-28  0.25520E-32  0.10346E-23  0.35286E-24  0.10957E-23  0.18881E-23  0.18876E-23  0.14883E-27 0.56886E-26  0.00000E-00
  0.22545E+19  0.20129E+01  0.31299E-24  0.72030E-29  0.11080E-32  0.10335E-23  0.32351E-24  0.97400E-24  0.17625E-23  0.17624E-23  0.13439E-27 0.51177E-26  0.00000E-00
  0.23075E+19  0.20519E+01  0.23645E-24  0.39216E-29  0.46682E-33  0.10261E-23  0.29386E-24  0.86609E-24  0.16507E-23  0.16506E-23  0.12185E-27 0.45784E-26  0.00000E-00
  0.23605E+19  0.20909E+01  0.17745E-24  0.21083E-29  0.19313E-33  0.10136E-23  0.26504E-24  0.77036E-24  0.15513E-23  0.15512E-23  0.11096E-27 0.40775E-26  0.00000E-00
  0.24135E+19  0.21296E+01  0.13279E-24  0.11295E-29  0.79482E-34  0.99695E-24  0.23795E-24  0.68540E-24  0.14629E-23  0.14630E-23  0.10153E-27 0.36196E-26  0.00000E-00
  0.24665E+19  0.21684E+01  0.99302E-25  0.60603E-30  0.32776E-34  0.97709E-24  0.21297E-24  0.60998E-24  0.13841E-23  0.13842E-23  0.93349E-28 0.32041E-26  0.00000E-00
  0.25195E+19  0.22070E+01  0.74499E-25  0.32881E-30  0.13728E-34  0.95526E-24  0.19053E-24  0.54300E-24  0.13140E-23  0.13140E-23  0.86255E-28 0.28327E-26  0.00000E-00
  0.25725E+19  0.22457E+01  0.56237E-25  0.18165E-30  0.58987E-35  0.93242E-24  0.17072E-24  0.48350E-24  0.12515E-23  0.12515E-23  0.80105E-28 0.25041E-26  0.00000E-00
  0.26255E+19  0.22841E+01  0.42817E-25  0.10276E-30  0.26212E-35  0.90940E-24  0.15349E-24  0.43063E-24  0.11958E-23  0.11957E-23  0.74770E-28 0.22157E-26  0.00000E-00
  0.26785E+19  0.23224E+01  0.32940E-25  0.59790E-31  0.12121E-35  0.88679E-24  0.13864E-24  0.38364E-24  0.11461E-23  0.11461E-23  0.70139E-28 0.19644E-26  0.00000E-00
  0.27315E+19  0.23608E+01  0.25640E-25  0.35882E-31  0.58574E-36  0.86504E-24  0.12594E-24  0.34186E-24  0.11018E-23  0.11017E-23  0.66116E-28 0.17467E-26  0.00000E-00
  0.27845E+19  0.23990E+01  0.20198E-25  0.22225E-31  0.29603E-36  0.84433E-24  0.11508E-24  0.30469E-24  0.10622E-23  0.10620E-23  0.62616E-28 0.15582E-26  0.00000E-00
  0.28375E+19  0.24372E+01  0.16124E-25  0.14252E-31  0.15718E-36  0.82503E-24  0.10591E-24  0.27163E-24  0.10269E-23  0.10267E-23  0.59569E-28 0.13968E-26  0.00000E-00
  0.28905E+19  0.24753E+01  0.13040E-25  0.94500E-32  0.87529E-37  0.80707E-24  0.98124E-25  0.24221E-24  0.99531E-24  0.99519E-24  0.56913E-28 0.12584E-26  0.00000E-00
  0.29435E+19  0.25133E+01  0.10680E-25  0.64751E-32  0.51073E-37  0.79048E-24  0.91529E-25  0.21602E-24  0.96713E-24  0.96701E-24  0.54595E-28 0.11403E-26  0.00000E-00
  0.29965E+19  0.25513E+01  0.88551E-26  0.45800E-32  0.31180E-37  0.77519E-24  0.85938E-25  0.19270E-24  0.94193E-24  0.94182E-24  0.52569E-28 0.10398E-26  0.00000E-00
  0.30495E+19  0.25892E+01  0.74299E-26  0.33397E-32  0.19879E-37  0.76115E-24  0.81200E-25  0.17194E-24  0.91940E-24  0.91929E-24  0.50797E-28 0.95449E-27  0.00000E-00
  0.31026E+19  0.26270E+01  0.63048E-26  0.25068E-32  0.13208E-37  0.74825E-24  0.77182E-25  0.15344E-24  0.89924E-24  0.89913E-24  0.49244E-28 0.88251E-27  0.00000E-00
  0.31554E+19  0.26647E+01  0.54077E-26  0.19337E-32  0.91235E-38  0.73642E-24  0.73775E-25  0.13695E-24  0.88119E-24  0.88109E-24  0.47884E-28 0.82207E-27  0.00000E-00
  0.32085E+19  0.27024E+01  0.46852E-26  0.15303E-32  0.65368E-38  0.72556E-24  0.70889E-25  0.12226E-24  0.86503E-24  0.86493E-24  0.46690E-28 0.77168E-27  0.00000E-00
  0.33146E+19  0.27777E+01  0.36222E-26  0.10310E-32  0.37238E-38  0.70644E-24  0.66418E-25  0.97612E-25  0.83772E-24  0.83763E-24  0.44732E-28 0.69682E-27  0.00000E-00
  0.35266E+19  0.29275E+01  0.23803E-26  0.59128E-33  0.16872E-38  0.67602E-24  0.61017E-25  0.62354E-25  0.79809E-24  0.79802E-24  0.42049E-28 0.62023E-27  0.00000E-00
  0.39506E+19  0.32247E+01  0.13690E-26  0.37443E-33  0.88384E-39  0.63196E-24  0.57680E-25  0.25655E-25  0.75572E-24  0.75574E-24  0.39507E-28 0.63538E-27  0.00000E-00
  0.47455E+19  0.37753E+01  0.10320E-26  0.68624E-33  0.21570E-38  0.53883E-24  0.59897E-25  0.49761E-26  0.73033E-24  0.73031E-24  0.38832E-28 0.10195E-26  0.00000E-00
  0.47951E+19  0.38094E+01  0.10450E-26  0.77068E-33  0.25542E-38  0.52934E-24  0.60213E-25  0.43685E-26  0.72953E-24  0.72952E-24  0.38889E-28 0.10705E-26  0.00000E-00
  0.48945E+19  0.38777E+01  0.10946E-26  0.99567E-33  0.37053E-38  0.51190E-24  0.61165E-25  0.35611E-26  0.72849E-24  0.72848E-24  0.39048E-28 0.11806E-26  0.00000E-00
  0.50932E+19  0.40139E+01  0.12825E-26  0.20347E-32  0.10445E-37  0.46622E-24  0.63523E-25  0.23690E-26  0.72676E-24  0.72669E-24  0.39560E-28 0.14922E-26  0.00000E-00
  0.54910E+19  0.42852E+01  0.85331E-27  0.11702E-29  0.10221E-33  0.11066E-25  0.46782E-26  0.10530E-26  0.72565E-24  0.72569E-24  0.45965E-28 0.57371E-26  0.00000E-00
  0.57292E+19  0.44473E+01  0.93915E-27  0.30166E-29  0.39818E-33  0.81821E-26  0.40768E-26  0.64359E-27  0.72499E-24  0.72503E-24  0.47177E-28 0.67523E-26  0.00000E-00
  0.62062E+19  0.47704E+01  0.94372E-27  0.10062E-28  0.22767E-32  0.49343E-26  0.30454E-26  0.24530E-27  0.72341E-24  0.72341E-24  0.48926E-28 0.83275E-26  0.00000E-00
