#     R         A_V     T_gas    T_dust  
#    [cm]                [K]       [K]   
# ---------------------------------------
 0.000E+00 0.000E+00 9.806E+01 1.871E+01
 1.591E+14 1.000E-04 9.804E+01 1.871E+01
 1.691E+14 1.064E-04 9.804E+01 1.871E+01
 1.798E+14 1.131E-04 9.804E+01 1.871E+01
 1.912E+14 1.202E-04 9.804E+01 1.871E+01
 2.033E+14 1.278E-04 9.804E+01 1.871E+01
 2.162E+14 1.359E-04 9.804E+01 1.871E+01
 2.298E+14 1.445E-04 9.804E+01 1.871E+01
 2.444E+14 1.537E-04 9.803E+01 1.871E+01
 2.598E+14 1.634E-04 9.803E+01 1.871E+01
 2.763E+14 1.737E-04 9.803E+01 1.871E+01
 2.937E+14 1.847E-04 9.803E+01 1.871E+01
 3.123E+14 1.964E-04 9.803E+01 1.871E+01
 3.321E+14 2.088E-04 9.803E+01 1.871E+01
 3.531E+14 2.220E-04 9.802E+01 1.871E+01
 3.754E+14 2.361E-04 9.802E+01 1.871E+01
 3.992E+14 2.510E-04 9.802E+01 1.871E+01
 4.244E+14 2.669E-04 9.802E+01 1.871E+01
 4.512E+14 2.838E-04 9.801E+01 1.871E+01
 4.798E+14 3.017E-04 9.801E+01 1.871E+01
 5.102E+14 3.208E-04 9.801E+01 1.871E+01
 5.424E+14 3.411E-04 9.800E+01 1.871E+01
 5.767E+14 3.627E-04 9.800E+01 1.871E+01
 6.132E+14 3.856E-04 9.800E+01 1.871E+01
 6.520E+14 4.100E-04 9.799E+01 1.871E+01
 6.932E+14 4.360E-04 9.799E+01 1.871E+01
 7.371E+14 4.636E-04 9.798E+01 1.871E+01
 7.837E+14 4.929E-04 9.798E+01 1.871E+01
 8.333E+14 5.241E-04 9.797E+01 1.871E+01
 8.860E+14 5.572E-04 9.797E+01 1.871E+01
 9.421E+14 5.925E-04 9.796E+01 1.871E+01
 1.002E+15 6.300E-04 9.795E+01 1.871E+01
 1.065E+15 6.698E-04 9.795E+01 1.871E+01
 1.132E+15 7.122E-04 9.794E+01 1.871E+01
 1.204E+15 7.572E-04 9.793E+01 1.871E+01
 1.280E+15 8.051E-04 9.792E+01 1.871E+01
 1.361E+15 8.560E-04 9.791E+01 1.871E+01
 1.447E+15 9.102E-04 9.790E+01 1.871E+01
 1.539E+15 9.677E-04 9.789E+01 1.871E+01
 1.636E+15 1.029E-03 9.788E+01 1.871E+01
 1.740E+15 1.094E-03 9.787E+01 1.871E+01
 1.850E+15 1.163E-03 9.785E+01 1.870E+01
 1.967E+15 1.237E-03 9.784E+01 1.870E+01
 2.091E+15 1.315E-03 9.782E+01 1.870E+01
 2.223E+15 1.398E-03 9.780E+01 1.870E+01
 2.364E+15 1.487E-03 9.778E+01 1.870E+01
 2.514E+15 1.581E-03 9.776E+01 1.870E+01
 2.673E+15 1.681E-03 9.774E+01 1.870E+01
 2.842E+15 1.787E-03 9.771E+01 1.870E+01
 3.021E+15 1.900E-03 9.767E+01 1.870E+01
 3.212E+15 2.020E-03 9.763E+01 1.870E+01
 3.416E+15 2.148E-03 9.758E+01 1.870E+01
 3.632E+15 2.284E-03 9.752E+01 1.870E+01
 3.862E+15 2.429E-03 9.744E+01 1.870E+01
 4.106E+15 2.582E-03 9.734E+01 1.870E+01
 4.366E+15 2.745E-03 9.722E+01 1.869E+01
 4.642E+15 2.919E-03 9.706E+01 1.869E+01
 4.935E+15 3.104E-03 9.687E+01 1.869E+01
 5.248E+15 3.300E-03 9.666E+01 1.869E+01
 5.580E+15 3.509E-03 9.645E+01 1.869E+01
 5.932E+15 3.731E-03 9.626E+01 1.869E+01
 6.308E+15 3.967E-03 9.608E+01 1.869E+01
 6.707E+15 4.218E-03 9.593E+01 1.868E+01
 7.131E+15 4.485E-03 9.579E+01 1.868E+01
 7.582E+15 4.768E-03 9.567E+01 1.868E+01
 8.062E+15 5.070E-03 9.556E+01 1.868E+01
 8.572E+15 5.391E-03 9.547E+01 1.868E+01
 9.114E+15 5.732E-03 9.537E+01 1.867E+01
 9.690E+15 6.094E-03 9.529E+01 1.867E+01
 1.030E+16 6.479E-03 9.521E+01 1.867E+01
 1.096E+16 6.889E-03 9.514E+01 1.867E+01
 1.165E+16 7.325E-03 9.507E+01 1.866E+01
 1.238E+16 7.789E-03 9.501E+01 1.866E+01
 1.317E+16 8.281E-03 9.495E+01 1.866E+01
 1.400E+16 8.805E-03 9.489E+01 1.865E+01
 1.489E+16 9.362E-03 9.483E+01 1.865E+01
 1.583E+16 9.955E-03 9.478E+01 1.865E+01
 1.683E+16 1.058E-02 9.472E+01 1.864E+01
 1.790E+16 1.125E-02 9.467E+01 1.864E+01
 1.903E+16 1.197E-02 9.462E+01 1.863E+01
 2.023E+16 1.272E-02 9.457E+01 1.863E+01
 2.151E+16 1.353E-02 9.452E+01 1.862E+01
 2.287E+16 1.438E-02 9.447E+01 1.862E+01
 2.432E+16 1.529E-02 9.442E+01 1.861E+01
 2.586E+16 1.626E-02 9.437E+01 1.860E+01
 2.749E+16 1.729E-02 9.432E+01 1.860E+01
 2.923E+16 1.838E-02 9.426E+01 1.859E+01
 3.108E+16 1.955E-02 9.420E+01 1.858E+01
 3.304E+16 2.078E-02 9.414E+01 1.857E+01
 3.514E+16 2.210E-02 9.408E+01 1.857E+01
 3.736E+16 2.349E-02 9.401E+01 1.856E+01
 3.972E+16 2.498E-02 9.394E+01 1.855E+01
 4.223E+16 2.656E-02 9.386E+01 1.854E+01
 4.490E+16 2.824E-02 9.377E+01 1.852E+01
 4.775E+16 3.003E-02 9.368E+01 1.851E+01
 5.077E+16 3.193E-02 9.357E+01 1.850E+01
 5.398E+16 3.395E-02 9.346E+01 1.849E+01
 5.739E+16 3.609E-02 9.333E+01 1.847E+01
 6.102E+16 3.838E-02 9.320E+01 1.846E+01
 6.488E+16 4.080E-02 9.305E+01 1.844E+01
 6.899E+16 4.339E-02 9.288E+01 1.842E+01
 7.335E+16 4.613E-02 9.270E+01 1.841E+01
 7.799E+16 4.905E-02 9.250E+01 1.839E+01
 8.292E+16 5.215E-02 9.227E+01 1.837E+01
 8.817E+16 5.545E-02 9.203E+01 1.834E+01
 9.375E+16 5.896E-02 9.176E+01 1.832E+01
 9.968E+16 6.269E-02 9.146E+01 1.830E+01
 1.060E+17 6.665E-02 9.114E+01 1.827E+01
 1.127E+17 7.087E-02 9.079E+01 1.824E+01
 1.198E+17 7.535E-02 9.040E+01 1.821E+01
 1.274E+17 8.011E-02 8.998E+01 1.818E+01
 1.354E+17 8.518E-02 8.952E+01 1.815E+01
 1.440E+17 9.057E-02 8.901E+01 1.812E+01
 1.531E+17 9.630E-02 8.847E+01 1.808E+01
 1.628E+17 1.024E-01 8.788E+01 1.804E+01
 1.731E+17 1.089E-01 8.724E+01 1.800E+01
 1.841E+17 1.158E-01 8.656E+01 1.795E+01
 1.957E+17 1.231E-01 8.581E+01 1.791E+01
 2.081E+17 1.309E-01 8.502E+01 1.786E+01
 2.213E+17 1.391E-01 8.416E+01 1.780E+01
 2.352E+17 1.479E-01 8.324E+01 1.775E+01
 2.501E+17 1.573E-01 8.226E+01 1.769E+01
 2.660E+17 1.673E-01 8.122E+01 1.763E+01
 2.828E+17 1.778E-01 8.011E+01 1.756E+01
 3.007E+17 1.891E-01 7.892E+01 1.749E+01
 3.197E+17 2.010E-01 7.767E+01 1.741E+01
 3.399E+17 2.138E-01 7.635E+01 1.733E+01
 3.614E+17 2.273E-01 7.496E+01 1.725E+01
 3.843E+17 2.417E-01 7.349E+01 1.716E+01
 4.086E+17 2.570E-01 7.195E+01 1.707E+01
 4.344E+17 2.732E-01 7.035E+01 1.697E+01
 4.619E+17 2.905E-01 6.867E+01 1.687E+01
 4.911E+17 3.089E-01 6.693E+01 1.676E+01
 5.222E+17 3.284E-01 6.513E+01 1.664E+01
 5.552E+17 3.492E-01 6.327E+01 1.652E+01
 5.904E+17 3.713E-01 6.136E+01 1.639E+01
 6.277E+17 3.947E-01 5.940E+01 1.625E+01
 6.674E+17 4.197E-01 5.740E+01 1.611E+01
 7.096E+17 4.463E-01 5.538E+01 1.596E+01
 7.545E+17 4.745E-01 5.332E+01 1.580E+01
 8.022E+17 5.045E-01 5.126E+01 1.563E+01
 8.530E+17 5.364E-01 4.919E+01 1.545E+01
 9.069E+17 5.704E-01 4.712E+01 1.527E+01
 9.643E+17 6.064E-01 4.507E+01 1.507E+01
 1.025E+18 6.448E-01 4.304E+01 1.487E+01
 1.090E+18 6.856E-01 4.105E+01 1.466E+01
 1.159E+18 7.289E-01 3.910E+01 1.443E+01
 1.232E+18 7.750E-01 3.720E+01 1.420E+01
 1.310E+18 8.241E-01 3.536E+01 1.396E+01
 1.393E+18 8.762E-01 3.357E+01 1.370E+01
 1.481E+18 9.316E-01 3.185E+01 1.344E+01
 1.575E+18 9.906E-01 3.019E+01 1.316E+01
 1.675E+18 1.053E+00 2.860E+01 1.288E+01
 1.781E+18 1.120E+00 2.706E+01 1.258E+01
 1.893E+18 1.191E+00 2.557E+01 1.228E+01
 2.013E+18 1.266E+00 2.412E+01 1.197E+01
 2.140E+18 1.346E+00 2.269E+01 1.164E+01
 2.276E+18 1.431E+00 2.125E+01 1.131E+01
 2.420E+18 1.522E+00 1.976E+01 1.097E+01
 2.573E+18 1.618E+00 1.816E+01 1.063E+01
 2.736E+18 1.720E+00 1.639E+01 1.028E+01
 2.909E+18 1.829E+00 1.446E+01 9.926E+00
 3.093E+18 1.945E+00 1.252E+01 9.573E+00
 3.288E+18 2.068E+00 1.088E+01 9.223E+00
 3.496E+18 2.199E+00 9.709E+00 8.878E+00
 3.718E+18 2.338E+00 8.964E+00 8.543E+00
 3.953E+18 2.486E+00 8.544E+00 8.221E+00
 4.203E+18 2.643E+00 8.355E+00 7.919E+00
 4.469E+18 2.810E+00 8.327E+00 7.641E+00
 4.751E+18 2.988E+00 8.402E+00 7.393E+00
 5.052E+18 3.177E+00 8.530E+00 7.177E+00
 5.371E+18 3.378E+00 8.663E+00 6.996E+00
 5.711E+18 3.592E+00 8.760E+00 6.851E+00
 6.072E+18 3.819E+00 8.784E+00 6.740E+00
 6.457E+18 4.060E+00 8.746E+00 6.657E+00
 6.865E+18 4.317E+00 8.738E+00 6.598E+00
 7.299E+18 4.590E+00 8.110E+00 6.558E+00
 7.761E+18 4.881E+00 9.420E+00 6.532E+00
 8.252E+18 5.190E+00 1.040E+01 6.516E+00
 8.774E+18 5.518E+00 1.113E+01 6.506E+00
 9.329E+18 5.867E+00 1.173E+01 6.500E+00
 9.919E+18 6.238E+00 1.227E+01 6.497E+00
 1.055E+19 6.633E+00 1.284E+01 6.495E+00
 1.121E+19 7.052E+00 1.339E+01 6.494E+00
 1.192E+19 7.498E+00 1.390E+01 6.494E+00
 1.268E+19 7.972E+00 1.439E+01 6.493E+00
 1.348E+19 8.477E+00 1.484E+01 6.493E+00
 1.433E+19 9.013E+00 1.527E+01 6.493E+00
 1.524E+19 9.583E+00 1.568E+01 6.493E+00
 1.620E+19 1.019E+01 1.608E+01 6.493E+00
 1.723E+19 1.083E+01 1.650E+01 6.493E+00
 1.832E+19 1.152E+01 1.692E+01 6.493E+00
 1.948E+19 1.225E+01 1.733E+01 6.493E+00
 2.071E+19 1.302E+01 1.775E+01 6.493E+00
 2.202E+19 1.385E+01 1.816E+01 6.493E+00
 2.341E+19 1.472E+01 1.857E+01 6.493E+00
 2.489E+19 1.565E+01 1.897E+01 6.493E+00
 2.647E+19 1.664E+01 1.937E+01 6.493E+00
 2.814E+19 1.770E+01 1.976E+01 6.493E+00
 2.992E+19 1.882E+01 2.014E+01 6.493E+00
 3.181E+19 2.001E+01 2.053E+01 6.493E+00
